X,Y,Theta
-46,46,0.029045250267280994
-45.80008435672559,46.00580823330975,0.027327040962669982
-45.60015902879531,46.01127296129645,0.025612753733120237
-45.40022462652449,46.016394951984665,0.0239394704658567
-45.200281933612146,46.02118238876866,0.022269842002013006
-45.00033152614878,46.025635989023655,0.020645368840829625
-44.800374147760316,46.02976476947469,0.01902428014291127
-44.600410338992255,46.03356939599646,0.017452287052082276
-44.40044079645151,46.03705967622097,0.015883406930721843
-44.2004660241827,46.04023622403855,0.014367353933487773
-44.00048666591353,46.043109595968886,0.012854143138094402
-43.80050318858561,46.04568035380118,0.01139728443595915
-43.600516178254246,46.04795976133918,0.009942999735562258
-43.40052606449717,46.04994832851988,0.008548387764624694
-43.20053337194601,46.05165798525046,0.007215082458908102
-43.00053857766491,46.05310098922232,0.005884331202218967
-42.800542040190294,46.05427784867121,0.004617755036588916
-42.60054417255266,46.055201396396285,0.003353464820259484
-42.40054529712424,46.055872088103264,0.0021560254666423834
-42.20054576196864,46.05630329286252,0.0009606119161279184
-42.00054585424616,46.056495415216204,-0.000165465606779418
-41.80054585698405,46.056462322095,-0.0012897679394804529
-41.60054602333416,46.05620436857862,-0.0023424377077361676
-41.40054657203535,46.0557358814655,-0.003322997898590011
-41.20054767626584,46.0550712831089,-0.0043018731024114945
-41.00054952687421,46.054210911142114,-0.005206743384135648
-40.80055223788575,46.05316956717047,-0.006110165083915588
-40.60055597128587,46.05194754175759,-0.006937864219783293
-40.40056078466256,46.05055998004517,-0.0077643373841060894
-40.200566813125775,46.04900712817072,-0.008513546315422588
-40.000574061129086,46.04730443947643,-0.009261736832547897
-39.800582639044684,46.045452118592124,-0.009931295757642898
-39.60059250202716,46.04346589209143,-0.010522711537108882
-39.400603574670804,46.041361388622235,-0.011113241726282775
-39.20061592495786,46.03913878602774,-0.011624615913707207
-39.0006294379752,46.03681391520645,-0.012135287445667395
-38.80064416431461,46.034386917287065,-0.012565954277476553
-38.60065995442753,46.0318737925712,-0.01299608335320105
-38.40067684400806,46.0292746490671,-0.013345521706766523
-38.200694654038685,46.02660562395427,-0.013615389881664422
-38.00071319163647,46.02388263011066,-0.013884884402209207
-37.80073247032823,46.02110574245826,-0.014074440235169896
-37.600752278988026,46.01829094734377,-0.014263757566283421
-37.40077262412107,46.01543829256385,-0.014372920635315943
-37.200793281850196,46.0125638074081,-0.014481960358380654
-37.00081425420124,46.00966751657738,-0.01451078176872583
-36.80083531011052,46.00676546207025,-0.014461029280042571
-36.60085622188288,46.00387335701686,-0.014411339738996425
-36.40087699019474,46.000991188836146,-0.014283294400784831
-36.20089739109779,45.99813462708735,-0.014155394573661129
-36.00091742828276,45.99530364271801,-0.013949498943501252
-35.8009368868193,45.992513833408836,-0.013667558749715194
-35.60095556674473,45.989780406762414,-0.013385976818654739
-35.400973484914715,45.9871032913499,-0.013028964278448933
-35.2009904600656,45.9844975722175,-0.01267235931975929
-35.00100651871976,45.98196316818759,-0.012241069943451774
-34.80102150291199,45.979515015340056,-0.011810216530429879
-34.60103545087132,45.9771530269437,-0.011305555553176866
-34.40104823229382,45.97489196400029,-0.010729387443039782
-34.20105974415887,45.97274612768359,-0.010153879863919045
-34.00107005419792,45.970715386606564,-0.009507961996859222
-33.80107909426395,45.968813822858145,-0.008862700153390716
-33.601086948957935,45.96704130603213,-0.008148245558065793
-33.40109358831177,45.965411674953586,-0.007367081503022769
-33.201099015676206,45.96393827198095,-0.006586816773293638
-33.00110335427604,45.96262091815216,-0.005741252846743604
-32.801106650465414,45.9614726738909,-0.004896551949952685
-32.601109048082726,45.960493367414266,-0.003988072626211584
-32.40111063855294,45.95969575500333,-0.0030804003803974263
-32.201111587438845,45.95907967590157,-0.0021105790006991547
-32.001112032893055,45.95865756041482,-0.0010812851980594497
-31.801112149810812,45.95844130341735,-5.304763721848552e-05
-31.601112150092217,45.958430693889916,0.0010328739965201235
-31.401112256775075,45.95863726865249,0.0021178246241741255
-31.20111270529302,45.95906083326069,0.0032585730593542297
-31.001113767121918,45.95971254671922,0.004452368630651217
-30.801115749477287,45.96060301750329,0.005644931839459773
-30.60111893599437,45.96173199787528,0.006888523329304847
-30.401123681150974,45.96310969164542,0.008130994866983638
-30.201130292422302,45.96473587270004,0.009422388663813858
-30.00113917049743,45.96662032254849,0.010759921786111952
-29.801150747977417,45.9687722653813,0.012096065226785784
-29.601165379278413,45.97119141943264,0.013476135094329836
-29.401183539625283,45.97388656487392,0.01485495254345185
-29.201205606181,45.97685744611593,0.016275407141527126
-29.00123209448405,45.98011238384033,0.01773472193617607
-28.801263545695914,45.98365914229945,0.019192510184668807
-28.60130037980995,45.98749740868712,0.020686787222446705
-28.401343172600402,45.991634471045614,0.022179697355268344
-28.20139236448121,45.9960700468237,0.02370665919329759
-28.001448562418187,46.00081093456559,0.025264936410698196
-27.80151239072404,46.00586338429693,0.02682157227659935
-27.601584326085316,46.011227055597,0.028407027862844863
-27.401665016582136,46.01690769708995,0.029991021525169283
-27.201754955977627,46.02290500224324,0.031601284056297016
-27.001854811782604,46.029224207162265,0.03321027592113407
-26.80196509388867,46.03586504146855,0.034842933320230564
-26.60208648460716,46.042832218205966,0.03649660681781172
-26.402219670053487,46.0501299192253,0.03814874372862576
-26.202365185069354,46.05775781747624,0.03981926377107795
-26.00252372149682,46.06571956585129,0.041488453812442226
-25.802695825987833,46.0740148763608,0.04317335169341171
-25.60288219086706,46.08264686453401,0.044871416817789424
-25.403083501491075,46.0916181366645,0.04656789296140094
-25.20330031917031,46.10092834943265,0.04827485172274259
-25.00353332004596,46.11057957012501,0.049980440551149925
-24.803783072492177,46.12057149697631,0.05169379469684061
-24.604050237830897,46.130905651908854,0.05341250464047408
-24.404335459577432,46.14158307421803,0.05512959644850848
-24.204639309849213,46.1526034092277,0.05684933589442739
-24.00496240751746,46.16396715311764,0.05856768576519686
-23.80530532685949,46.175673994841034,0.06028595149185461
-23.605668656393934,46.18772388303254,0.06200187302818397
-23.4060529564846,46.20011631417847,0.06371617109887018
-23.20645879420269,46.212850927756485,0.06542541890617679
-23.006886690080414,46.22592667845035,0.06713327828685564
-22.80733720854502,46.239343250999106,0.06883336610231736
-22.60781082472888,46.253099055637634,0.07052358647311752
-22.408307976250782,46.26719208402493,0.07221220199689336
-22.208829209901264,46.28162197576652,0.07388826912303083
-22.009374909195515,46.29638618688598,0.07556296980607807
-21.809945613809585,46.31148440339893,0.07722243361070001
-21.610541647952115,46.32691354466837,0.07886474001902388
-21.411163290374006,46.34267014739407,0.08050548376778839
-21.211811053698924,46.35875385755813,0.0821264347316253
-21.012485149815067,46.375160686651036,0.08374606162546339
-20.813186080296163,46.39189032767825,0.08534325982291917
-20.613913985528495,46.408938267345704,0.08691629212213559
-20.414668954251933,46.42629964723332,0.0884878266344868
-20.215451453011557,46.44397412599624,0.09003262335703022
-20.016261492943155,46.461956334090594,0.09157615784781716
-19.81709952630701,46.480245977215155,0.09309038846544693
-19.61796548272652,46.49883717640411,0.09457376633807037
-19.41885923599764,46.51772374606455,0.09605573263837532
-19.21978119715921,46.536905363625245,0.09750435336381041
-19.020731154082604,46.55637534953179,0.09895179181314966
-18.82170950111502,46.57613342762786,0.10036340336685473
-18.622715937159427,46.59617242720995,0.10173782988352403
-18.423750103281748,46.616484909809564,0.10311095066789264
-18.224812348458443,46.637070577296015,0.10444448603922686
-18.025902222229867,46.657921516932674,0.10577693553445915
-17.82702005539171,46.67903747567859,0.1070674158810469
-17.628165303878895,46.70041007029825,0.10831475979459902
-17.42933736603072,46.72203068849111,0.10956092147707291
-17.23053652534333,46.743899061589865,0.11076165025636996
-17.03176208594506,46.766006124757666,0.11196140414068237
-16.83301431263422,46.78835165236347,0.11311344992588106
-16.63429241427853,46.81092613162458,0.1142168093766428
-16.43559554464504,46.83371985878473,0.11531912570368563
-16.23692392162246,46.856732598855714,0.11637057289750176
-16.038276605096215,46.87995421888795,0.11742116887077021
-15.839653794734646,46.903384524137195,0.11841873840100914
-15.64105445655704,46.927012957758926,0.119362488887251
-15.442477506164574,46.9508288090523,0.12030534899874544
-15.243923099050964,46.97483188001755,0.12119232927829293
-15.045390060289904,46.999011055361215,0.12207859298041704
-14.846878528621701,47.02336617381185,0.1229069454272014
-14.648387239679257,47.0478857214008,0.12367677493737718
-14.449914885422944,47.0725580661608,0.12444587878658704
-14.251461565460335,47.09738304946027,0.1251545280897398
-14.053025887533394,47.122348660321514,0.12586260506713878
-13.854607936924397,47.147454772647514,0.12650832886663446
-13.656206239294612,47.17268900292345,0.12709126299080878
-13.457819285267576,47.19803888402523,0.1276736469477678
-13.259447128247325,47.2235042982008,0.12819144503068539
-13.061088183762388,47.249072425680566,0.12870882385830842
-12.862742494233125,47.27474317645185,0.12915985701082863
-12.664408403237939,47.30050338509062,0.12954427666318177
-12.466084229627713,47.326339835346424,0.12992833193152317
-12.267769993268331,47.352252451138654,0.13024411841737524
-12.069463949650752,47.37822769059362,0.13055964751915045
-11.871166111848547,47.40426550008233,0.13080529223972742
-11.672874676079491,47.43035201960193,0.13098094634825314
-11.474587825573822,47.456473369424295,0.13115643254067375
-11.276305562057512,47.48262951544867,0.1312604187075704
-11.078026019490588,47.508806279944146,0.1313643191035606
-10.8797491977701,47.53500364562128,0.13139525294127366
-10.681473186529534,47.561207144748906,0.1313532681100034
-10.483196075314233,47.587402319268556,0.13131132396758344
-10.284917865539217,47.613589177201774,0.1311951021422006
-10.0866366136189,47.63975299070272,0.1310789779656548
-9.888352324784186,47.6658937787802,0.13088726311029042
-9.690063028016027,47.69199655233376,0.1306201518476313
-9.491766765976962,47.71804635965233,0.13035330466710696
-9.293463559680426,47.744043251245614,0.1300098566582879
-9.095151436498991,47.769972034465646,0.1296667048438952
-8.896830427484664,47.79583276499553,0.12924579688713358
-8.698498551051033,47.821610018346405,0.12874746553421673
-8.500153853630684,47.847288433508375,0.1282496403980667
-8.301796397428209,47.872868104516485,0.12767334592871218
-8.103424232742393,47.89833345897826,0.12709756598757055
-7.905037438499515,47.92368459051186,0.1264423229149874
-7.706634075692544,47.94890572503998,0.1257080799129911
-7.5082122479266,47.97398117650195,0.12497460931269593
-7.309772081429266,47.998911084654814,0.12416125490139188
-7.1113117037219835,48.02367958239454,0.1233486591815777
-6.912831264764528,48.04828680392108,0.12245535085452275
-6.714328923167768,48.072716711424036,0.12148191547313761
-6.5158028946865,48.09695337818031,0.12050954938990521
-6.3172533931489765,48.12099699353244,0.11945633760996428
-6.118678678718223,48.14483148091406,0.11840416190851827
-5.9200789961420295,48.16845701965151,0.11727047976613751
-5.72145265734384,48.1918573943414,0.116055990891857
-5.522798045543163,48.2150165223544,0.1148429068671887
-5.324115485948507,48.237934648650324,0.11354846538630091
-5.125403426642909,48.26059557287085,0.11225537924576338
-4.926662230948824,48.282999526407785,0.11088044543445952
-4.7278904191656395,48.30513020286447,0.1094244695051775
-4.529086596346376,48.326971448993,0.10797028171459763
-4.330251222466276,48.34852357403813,0.10643467101243176
-4.131382987362134,48.369770340064136,0.10490078652294005
-3.9324823961346196,48.390712040313765,0.10328516116421808
-3.733548230569457,48.41133236453266,0.10158869785710771
-3.5345793696626333,48.43161517472851,0.0998944637165391
-3.3355764305057067,48.4515608561384,0.09811918191333507
-3.136538395753405,48.471153220006535,0.09634605937366562
-2.9374659342414065,48.490392634435096,0.09449174444423863
-2.7383581390700695,48.50926287296059,0.09255725421506585
-2.5392142121851515,48.52774790433342,0.09062550244656734
-2.3400349483994822,48.5458482048226,0.08861363503818448
-2.140819672333643,48.5635477466814,0.08660443264483443
-1.9415692364352335,48.58084698927447,0.08451531472629129
-1.7422830952109396,48.5977299367639,0.08234758576749023
-1.5429608245885973,48.614180846585356,0.08018317996042842
-1.3436034144269107,48.63020030393026,0.07794059631529802
-1.1442105806243708,48.64577264569997,0.07570126133921412
-0.9447833751009416,48.660898441451465,0.07338430770870655
-0.7453216591312017,48.675562133428826,0.07099126673244353
-0.5458254235021469,48.689748463815384,0.06860220989117492
-0.34629586527701717,48.70345814632391,0.06613782064887544
-0.1467331269845766,48.71667606920244,0.06367734167839331
0.05286152962453522,48.72940293264521,0.06114239547132994
0.25248780682078165,48.741623794021045,0.058611275903844344
0.45214437698621435,48.75333933881314,0.05600666057491126
0.6518307843678969,48.76453481589082,0.05333029911267265
0.8515464396896881,48.77519582050518,0.05065858730583426
1.0512898653203533,48.785323205030664,0.04791624825006782
1.2510603125612199,48.79490278796439,0.045178477533718404
1.4508562377928658,48.803935409999575,0.04237128781963281
1.650676732048072,48.81240713211524,0.03949651391412416
1.8505207548652205,48.820304381272955,0.03662719778590151
2.050386614700791,48.82762818303078,0.03369161577131527
2.2502731129406293,48.83436523145092,0.03076141245222251
2.4501784939525924,48.84051654370619,0.02776633384825538
2.650101401976208,48.84606909693698,0.02470824702363631
2.85004035533494,48.85101024354631,0.021656485600869958
3.049993456831088,48.85534120210894,0.01854318099602239
3.2499590728602024,48.85904962577631,0.015436124097645661
3.4499352459406034,48.862136727996436,0.012269044627581127
3.649920193183821,48.864590475360664,0.009108127709332715
3.8499118974421345,48.866412075716234,0.0058887598780744885
4.049908429702866,48.867589820884945,0.0026127874445274865
4.249907747037431,48.8681123777793,-0.0006560183670781951
4.449907704001423,48.86798117411529,-0.003979825610455743
4.649906120102325,48.867185211094416,-0.007296551220726591
4.849900796159974,48.865725913799096,-0.010666639908787594
5.049889418547156,48.86359262627113,-0.014029738954450238
5.249869735512504,48.86078677053012,-0.017444531900342782
5.449839305114887,48.85729804109986,-0.020909265627631263
5.649795586968802,48.85311649268355,-0.024365963996760366
5.849736219885927,48.84824378207247,-0.027870940682797427
6.04965854598069,48.842670315569535,-0.03136797579957174
6.249560159057827,48.836397749176236,-0.034911610350636266
6.449438289382959,48.82941684538593,-0.038500201176048396
6.6492900811422535,48.821718707260395,-0.04207978558097477
6.849113036433658,48.81330523362524,-0.04570267906658296
7.048904199300519,48.80416787950561,-0.04931666409404148
7.248661035254725,48.79430854435743,-0.05297230747567674
7.4483804943293475,48.78371903695906,-0.05661914704886467
7.6480600071780325,48.77240125676541,-0.06030599431428249
7.847696436089718,48.76034736729399,-0.06398414902221834
8.047287178609727,48.74755926734475,-0.06770066432851597
8.246829015649363,48.7340294753712,-0.07145413230121644
8.44631866354428,48.71975080656904,-0.07519782924102363
8.645753458606679,48.70472541078659,-0.07897689717578779
8.845130047715017,48.68894644645033,-0.08274631192031649
9.044445743085168,48.67241606293654,-0.08654952997862671
9.243697128457818,48.65512775974972,-0.09034321920661913
9.442881493719202,48.63708368494885,-0.09416916098500475
9.641995365757666,48.61827767628539,-0.09802616938771447
9.841035221984239,48.59870382553228,-0.10187257743260501
10.039998316998378,48.57836453295869,-0.10574858683979363
10.238881082366488,48.557254212271076,-0.10961412904116109
10.43768075920961,48.535375261494806,-0.11350783252632315
10.636393739129328,48.51272241153227,-0.11739120838080094
10.835017251385176,48.48929805713026,-0.12130133294967235
11.033547653347892,48.46509724110017,-0.1252012758178428
11.23198216397242,48.440122353849084,-0.12912658454250397
11.430317111963548,48.41436874428933,-0.13307637869060057
11.6285487916656,48.387831955438685,-0.13701494124689897
11.826674417324755,48.36051462655814,-0.1409767091867877
12.02469026350049,48.33241258635984,-0.1449274019730139
12.222593542126514,48.303528467729166,-0.14890005558621394
12.4203805128057,48.27385837791551,-0.1528617966932263
12.618048386407862,48.243404942221,-0.15684429117644424
12.815593412160874,48.21216453889067,-0.16081604194408272
13.0130128010292,48.180139784420774,-0.16480737724768757
13.210302796185685,48.14732732015558,-0.1687881437069624
13.407460609753903,48.11372975255018,-0.1727873658607059
13.604482482896573,48.07934397782641,-0.1768045478219085
13.801364632754012,48.04416700997082,-0.18081014919562255
13.998104298608066,48.008201695018286,-0.18483269533456606
14.194697701005412,47.97144527879152,-0.18884384715998095
14.391142086705246,47.93390059438727,-0.19287097189987537
14.58743368274713,47.89556511052011,-0.19688689446810978
14.783569744010615,47.85644164605124,-0.2009178621806237
14.979546506803187,47.816527883445545,-0.20493782567550672
15.175361234658748,47.775826626034345,-0.20897195141353753
15.371010175610598,47.73433576072137,-0.21302004848695963
15.566489554914524,47.69205323162303,-0.21705617340654776
15.761796684905304,47.648982069869895,-0.22110550263649262
15.956927804828583,47.60512040052766,-0.2251430693093518
16.151880240312476,47.560471235934145,-0.22919311958060629
16.346650246038386,47.515032872522504,-0.2332316224410295
16.541235161003428,47.46880830256184,-0.23728193488455496
16.735631256445874,47.42179598421088,-0.24132092057356608
16.929835884694562,47.373998888412196,-0.24537108882985326
17.123845334341492,47.325415625371356,-0.2494101564675632
17.31765697089703,47.27604914346648,-0.2534598268816128
17.51126710078097,47.22589819525685,-0.2574986282719234
17.70467310242221,47.174965705339815,-0.2615475000240162
17.897871300222018,47.1232505589424,-0.26560666310836273
18.09085798674281,47.070751617755704,-0.26965404464022996
18.28363060991475,47.017472017950425,-0.2737112970972511
18.47618547825096,46.963410731617,-0.2777570104883311
18.668520054866434,46.90857086803086,-0.2818122214935066
18.860630663429557,46.85295150020357,-0.2858561411537765
19.052514781532917,46.79655570940589,-0.28990923209009745
19.24416874690313,46.73938266017924,-0.2939512846522022
19.435590050795305,46.68143540471169,-0.2980022289479736
19.62677504360153,46.622713189786815,-0.3020423931189302
19.817721229317232,46.56321903746388,-0.3060912160482773
20.00842496931784,46.50295226760037,-0.31014922036596243
20.198882576982207,46.44191211947829,-0.3141955811552919
20.389091635676163,46.38010181296911,-0.31825099449391464
20.579048464592898,46.31752064049768,-0.3222950326255605
20.76875066025357,46.25417178919381,-0.3263480398500907
20.958194545160893,46.19005459593631,-0.33038994535037264
21.14737772766749,46.125172214223895,-0.33444078146544837
21.336296530820672,46.05952401687493,-0.33848079458424957
21.52494857338033,45.99311312290361,-0.34252974437877587
21.713330175921037,45.92593893273957,-0.3465681552525735
21.901438966085802,45.85800453009446,-0.3506155529301411
22.089271258714582,45.789309334878084,-0.35465270123177317
22.27682468870955,45.719856394716246,-0.3586989300300287
